iter	MultiClass
0	1.310922722
1	1.119759437
2	0.9808739427
3	0.874932568
4	0.7892394319
5	0.7160588054
6	0.6586070656
7	0.6069280606
8	0.5654054784
9	0.529879482
10	0.4995394676
11	0.4707142861
12	0.4441524161
13	0.4235286278
14	0.4019329685
15	0.3845412845
16	0.3689169922
17	0.3552755966
18	0.3422086164
19	0.3331402648
20	0.3235031416
21	0.3151114661
22	0.3061137708
23	0.2986669602
24	0.2908050859
25	0.2838039392
26	0.2763410753
27	0.2686198325
28	0.2608506515
29	0.2551368787
30	0.2506167345
31	0.2472511196
32	0.2439112985
33	0.2405844627
34	0.2363371997
35	0.2297038233
36	0.2254978907
37	0.2214754687
38	0.2186597925
39	0.21557413
40	0.2134962352
41	0.2095396622
42	0.2077638338
43	0.2054249761
44	0.2035027505
45	0.2014875438
46	0.199148121
47	0.196985357
48	0.1935036408
49	0.1916642352
50	0.1902421253
51	0.1887851584
52	0.1870491225
53	0.1855899544
54	0.1838908557
55	0.1826245476
56	0.1802598193
57	0.177886499
58	0.1757398581
59	0.1742647624
60	0.1726396034
61	0.1708644158
62	0.1698378275
63	0.1688087249
64	0.1674123715
65	0.1665575157
66	0.1653957114
67	0.1642224445
68	0.1634202047
69	0.1624893183
70	0.1611814637
71	0.1598617776
72	0.1583502929
73	0.1573615369
74	0.1566648408
75	0.1556234313
76	0.1545967487
77	0.1535083546
78	0.152672449
79	0.1520347336
80	0.1508958756
81	0.1502451297
82	0.1493288409
83	0.1489263465
84	0.1474839463
85	0.1468438749
86	0.1462578176
87	0.1450838083
88	0.1442641294
89	0.1436260449
90	0.1431201747
91	0.1424859781
92	0.1418648926
93	0.141093267
94	0.1405204869
95	0.1402010134
96	0.1392753697
97	0.1381485689
98	0.1372218917
99	0.1367340814
100	0.136247408
101	0.1358445144
102	0.1352764024
103	0.1347951595
104	0.1343536115
105	0.133518207
106	0.1331407375
107	0.1328715241
108	0.1326112565
109	0.1322668024
110	0.1313880458
111	0.1309549445
112	0.1303948937
113	0.1298269274
114	0.1296063915
115	0.1293490628
116	0.1286594567
117	0.1281881603
118	0.127788958
119	0.1273777693
120	0.1266967407
121	0.1263242221
122	0.1259115977
123	0.1252326009
124	0.1245470252
125	0.1237419796
126	0.1232473182
127	0.1229622612
128	0.1227428488
129	0.1224373939
130	0.1218934065
131	0.1215697812
132	0.121339814
133	0.1211448244
134	0.1208418278
135	0.1203995716
136	0.1197466527
137	0.1189676753
138	0.1185480018
139	0.1183331303
140	0.118166697
141	0.1176478589
142	0.1172955872
143	0.1169097063
144	0.1165608833
145	0.1163086985
146	0.1160672996
147	0.1158582637
148	0.1155844389
149	0.1151920122
150	0.1146474149
151	0.1142134633
152	0.11400892
153	0.1138291334
154	0.1133270455
155	0.1131061451
156	0.1125930129
157	0.1121342368
158	0.1120135112
159	0.1116667237
160	0.1113658698
161	0.1110033321
162	0.1107830619
163	0.1104717377
164	0.110139447
165	0.1100321403
166	0.1095323764
167	0.1093540405
168	0.1091327143
169	0.1085622293
170	0.1083756369
171	0.1081914002
172	0.1081166415
173	0.1079475789
174	0.1075492231
175	0.1074024944
176	0.1072805965
177	0.1071321871
178	0.1068652586
179	0.1067043281
180	0.1064703142
181	0.1062077508
182	0.1061094606
183	0.1056618052
184	0.1054522756
185	0.1050326338
186	0.1047564237
187	0.104459912
188	0.1042971276
189	0.1042141569
190	0.1040949376
191	0.1039805587
192	0.1037673801
193	0.1033537838
194	0.1031910106
195	0.103030909
196	0.1025902346
197	0.1024796678
198	0.1022533002
199	0.1021298017
200	0.1020109948
201	0.1018511379
202	0.1015083593
203	0.1013787963
204	0.1011732229
205	0.1010310122
206	0.1008157712
207	0.1006757131
208	0.1005009119
209	0.1004033765
210	0.1000832211
211	0.09988909456
212	0.099445975
213	0.09924322006
214	0.09910087461
215	0.09898805965
216	0.09882672265
217	0.09868840162
218	0.09849784345
219	0.09824377566
220	0.09808487248
221	0.0979788692
222	0.09785842289
223	0.09748962337
224	0.09715882243
225	0.09707516023
226	0.09691396508
227	0.09680864947
228	0.09665419296
229	0.09648258835
230	0.09601326869
231	0.09577380353
232	0.09571703918
233	0.09533640102
234	0.0951733018
235	0.09510040378
236	0.09496922018
237	0.0948040046
238	0.09474087677
239	0.09463238175
240	0.0944386769
241	0.09436834064
242	0.09419134102
243	0.09413231991
244	0.09394947527
245	0.0937834572
246	0.09359952158
247	0.09351955697
248	0.09341499157
249	0.0933284897
250	0.09320069234
251	0.09309342502
252	0.09297184576
253	0.09266760058
254	0.09247940461
255	0.09236273272
256	0.09212681606
257	0.09195867425
258	0.09175458068
259	0.09152350299
260	0.0914369075
261	0.09130178228
262	0.09113422094
263	0.09106647275
264	0.0909228945
265	0.09086049912
266	0.09069552039
267	0.09055971686
268	0.09023309528
269	0.09009763606
270	0.08995613043
271	0.08978377966
272	0.08970777106
273	0.08945883632
274	0.08922307725
275	0.08912034217
276	0.08895926164
277	0.08871667905
278	0.08853025467
279	0.08839674375
280	0.0882130246
281	0.08806642538
282	0.08794259854
283	0.08778459878
284	0.08766030537
285	0.08758845289
286	0.08736491899
287	0.08722268113
288	0.08712240294
289	0.08700828519
290	0.08694691979
291	0.08681487376
292	0.08670379427
293	0.08660633229
294	0.08645559178
295	0.08634499207
296	0.08627786877
297	0.08610252983
298	0.08601853331
299	0.08591094917
300	0.08579734466
301	0.08574402638
302	0.08554871694
303	0.08548855971
304	0.0852697897
305	0.08512778301
306	0.08506195069
307	0.0849470969
308	0.08482160914
309	0.08475337875
310	0.08464519646
311	0.08457391868
312	0.08450257544
313	0.08442057532
314	0.08437897143
315	0.08425516796
316	0.08410441809
317	0.08395587791
318	0.08386899379
319	0.08381124498
320	0.08364234578
321	0.08351103076
322	0.08338488944
323	0.08318111661
324	0.08305643472
325	0.08299893908
326	0.08290561419
327	0.08284036644
328	0.08274494992
329	0.08253406258
330	0.08244771172
331	0.08230639185
332	0.08221824437
333	0.08216465775
334	0.08202055184
335	0.08187127159
336	0.08172586983
337	0.08154635283
338	0.08144090465
339	0.08131166339
340	0.08119615
341	0.08112591856
342	0.08101479617
343	0.08093398535
344	0.08081644457
345	0.08073341644
346	0.08062060767
347	0.08055149901
348	0.08046073647
349	0.08040383238
350	0.08034075788
351	0.08026189217
352	0.08002672035
353	0.07995725539
354	0.07985630662
355	0.07971584015
356	0.07967381289
357	0.07960338021
358	0.0794379864
359	0.07937007607
360	0.07924000915
361	0.07918189485
362	0.0790222474
363	0.07885840132
364	0.07876482659
365	0.0786352534
366	0.07855123238
367	0.07848883613
368	0.07839513846
369	0.07835042425
370	0.07828265878
371	0.07815691391
372	0.07809030436
373	0.07789241747
374	0.07778271094
375	0.07770401104
376	0.07767928935
377	0.07759807607
378	0.07747860632
379	0.077397347
380	0.0773001294
381	0.07722987491
382	0.0771458378
383	0.07707588504
384	0.07694742778
385	0.0768378615
386	0.07676828247
387	0.0766730676
388	0.07652059941
389	0.07642746024
390	0.07638414308
391	0.07620448098
392	0.07610487873
393	0.07604238788
394	0.07596706546
395	0.07591941312
396	0.07581719518
397	0.07577124368
398	0.0756911737
399	0.07557928115
400	0.07547871467
401	0.07536789978
402	0.07531402561
403	0.0752325812
404	0.0751345016
405	0.0750957303
406	0.07497106968
407	0.07491033305
408	0.07479773756
409	0.07474405016
410	0.07463713873
411	0.07451255581
412	0.07443903547
413	0.07436858733
414	0.07430893386
415	0.07412291456
416	0.07407606477
417	0.07392907401
418	0.07388039076
419	0.07378716595
420	0.07372784985
421	0.07362090828
422	0.07353216737
423	0.07340919865
424	0.07324908729
425	0.07306936773
426	0.07298834492
427	0.07295769295
428	0.0729259792
429	0.07286486303
430	0.07275668703
431	0.07265332387
432	0.07257180349
433	0.07252641818
434	0.07248741248
435	0.07235152192
436	0.07228606852
437	0.07221837252
438	0.07218651137
439	0.07211170738
440	0.07204499924
441	0.0718782482
442	0.07182012037
443	0.07176896402
444	0.07167582779
445	0.07151252574
446	0.07144187818
447	0.0712219877
448	0.07115846535
449	0.07110553062
450	0.07102149126
451	0.07096687331
452	0.07085865485
453	0.07080591667
454	0.07073529836
455	0.07066793769
456	0.07059398591
457	0.07056804745
458	0.07042712859
459	0.07033731122
460	0.07022740233
461	0.07007500404
462	0.0700080256
463	0.06986879736
464	0.0697727073
465	0.06961355628
466	0.06959124758
467	0.06947705749
468	0.06942362747
469	0.06934859751
470	0.06928042207
471	0.0691768189
472	0.06910362574
473	0.06899680946
474	0.06879884443
475	0.06872376502
476	0.06863918374
477	0.068601104
478	0.06854796387
479	0.06849659421
480	0.06840370316
481	0.06830816417
482	0.06823779212
483	0.06820554584
484	0.06813209062
485	0.06806360373
486	0.06798863209
487	0.0678981483
488	0.06782336875
489	0.06777206841
490	0.06771965017
491	0.06767249085
492	0.06760255999
493	0.06752750923
494	0.06743185126
495	0.06736631228
496	0.06733496377
497	0.06727045739
498	0.06721307999
499	0.06715941248
500	0.06712105624
501	0.06709088104
502	0.06701291214
503	0.06683562429
504	0.06678724654
505	0.0666581051
506	0.06661396299
507	0.06654807955
508	0.06650251473
509	0.06641766653
510	0.06636684896
511	0.06630547416
512	0.0662336138
513	0.0661733514
514	0.06614061383
515	0.06604584667
516	0.0660099288
517	0.06592226287
518	0.06575745368
519	0.06567495429
520	0.06562760362
521	0.06556407534
522	0.06550550357
523	0.06546732415
524	0.06543225898
525	0.06529512709
526	0.06523800463
527	0.06515027444
528	0.06511464084
529	0.06504074075
530	0.06498640819
531	0.0649219173
532	0.06488676448
533	0.06487072905
534	0.06481349037
535	0.06474485241
536	0.06467813415
537	0.06464102216
538	0.06459407624
539	0.06452702588
540	0.06449112602
541	0.06445444698
542	0.06432023296
543	0.06420986571
544	0.06416766312
545	0.06409761626
546	0.06405610069
547	0.06400610651
548	0.06393655258
549	0.06383134561
550	0.06373374803
551	0.06362172233
552	0.06350706683
553	0.06346443961
554	0.06339115959
555	0.06331328798
556	0.06320793176
557	0.06315163248
558	0.06309991634
559	0.06300903022
560	0.06296397525
561	0.06291622869
562	0.0628640844
563	0.06279702209
564	0.06274992765
565	0.06271449182
566	0.06267677414
567	0.06261022031
568	0.06255369217
569	0.06249181662
570	0.062385955
571	0.06235107697
572	0.06231997078
573	0.06221598863
574	0.06218267128
575	0.0621427968
576	0.06210462851
577	0.06204977652
578	0.0620163917
579	0.06193549291
580	0.06187891991
581	0.06185200575
582	0.06179596131
583	0.06176115298
584	0.06167569148
585	0.06165545586
586	0.06153706124
587	0.06150484321
588	0.06142999707
589	0.06127979957
590	0.06119586271
591	0.06116474364
592	0.06112861904
593	0.06105376272
594	0.06098015116
595	0.06093884916
596	0.06088326573
597	0.06086336399
598	0.06083011107
599	0.06074620493
600	0.06053512845
601	0.06045918567
602	0.06037884182
603	0.06035412332
604	0.06031060175
605	0.0602483208
606	0.06019800892
607	0.06012222597
608	0.06007505154
609	0.06004476264
610	0.05996644855
611	0.05989668848
612	0.05983340489
613	0.05975334711
614	0.05965544715
615	0.05960804212
616	0.0595583265
617	0.05949746084
618	0.05942200336
619	0.05938431393
620	0.05934951599
621	0.05928251018
622	0.05921450811
623	0.05913954503
624	0.05907819326
625	0.05900783144
626	0.05896245603
627	0.0589149673
628	0.05885615063
629	0.05877141863
630	0.05873045022
631	0.05865526387
632	0.05859466627
633	0.05854268871
634	0.05842825953
635	0.05839941878
636	0.05829321499
637	0.05820630109
638	0.05811054573
639	0.0580328942
640	0.05793993527
641	0.05791653304
642	0.05785528119
643	0.05777526479
644	0.05774677844
645	0.05771472821
646	0.05768245195
647	0.05763051316
648	0.05756803475
649	0.05751898181
650	0.05745932552
651	0.0573906395
652	0.05730525876
653	0.05727037674
654	0.05723675804
655	0.0571906723
656	0.05712502979
657	0.05704262922
658	0.05697254112
659	0.05685679991
660	0.05681146325
661	0.05678115652
662	0.05673851675
663	0.05670824797
664	0.05662335428
665	0.05651087539
666	0.05641690337
667	0.05631287185
668	0.05615354548
669	0.05611422886
670	0.05607235145
671	0.05601303757
672	0.05597686061
673	0.05588830422
674	0.05583499984
675	0.05579089792
676	0.05572450649
677	0.05569696567
678	0.05564570233
679	0.0555968724
680	0.05555043946
681	0.05552652492
682	0.05547300452
683	0.05542516163
684	0.05537402214
685	0.05532901539
686	0.05529371266
687	0.05527160235
688	0.05520701607
689	0.05514471521
690	0.05510842912
691	0.05506201447
692	0.05501722006
693	0.05498172462
694	0.05495682862
695	0.0549143362
696	0.05486212404
697	0.05481199824
698	0.05472245274
699	0.05469184505
700	0.0546444708
701	0.05458432731
702	0.05455398341
703	0.05452533393
704	0.0545041708
705	0.05446396917
706	0.05444249869
707	0.05439028292
708	0.05435985747
709	0.0543238069
710	0.05429156604
711	0.05426639906
712	0.05423172142
713	0.05413166638
714	0.05409631097
715	0.05404086214
716	0.05396215916
717	0.05387647953
718	0.05385128582
719	0.05380873511
720	0.05374941498
721	0.05371281742
722	0.05366699668
723	0.05358493874
724	0.05355518521
725	0.05352120222
726	0.05350282348
727	0.05343954012
728	0.05340576718
729	0.05336911633
730	0.05331804789
731	0.05327910238
732	0.05322317306
733	0.0531824119
734	0.05310742262
735	0.05306687926
736	0.05305208894
737	0.05300973061
738	0.05297292048
739	0.05294510564
740	0.05291955796
741	0.05289656116
742	0.05285172826
743	0.05283950028
744	0.05281878795
745	0.05278268995
746	0.05274538564
747	0.05271889527
748	0.05269068668
749	0.05264499436
750	0.05255109389
751	0.05248052957
752	0.05242463722
753	0.05236761917
754	0.05234002235
755	0.05229926421
756	0.05225702546
757	0.05222662923
758	0.05217382272
759	0.05213190737
760	0.05210756995
761	0.05208179099
762	0.05205872284
763	0.05203081555
764	0.05200377125
765	0.05194749266
766	0.05193258968
767	0.05190190018
768	0.05185065497
769	0.05180959302
770	0.0517630639
771	0.05173142199
772	0.05168534585
773	0.05165483706
774	0.05157111159
775	0.05148354882
776	0.05139997178
777	0.05137315263
778	0.05132093693
779	0.0512797362
780	0.05125414819
781	0.05119301313
782	0.05116540599
783	0.05111850244
784	0.05100285929
785	0.05094597507
786	0.05092062372
787	0.05086483148
788	0.05083284159
789	0.05080243259
790	0.05077291724
791	0.05069267349
792	0.05064455789
793	0.05062170542
794	0.05052371329
795	0.05046033523
796	0.0504157661
797	0.05038004313
798	0.05032068217
799	0.05025965864
800	0.05021724275
801	0.05015615077
802	0.0501179563
803	0.05007878276
804	0.05006507124
805	0.05003057691
806	0.04998977279
807	0.04995119301
808	0.04991859002
809	0.04988035265
810	0.04984154978
811	0.04978760172
812	0.04973721979
813	0.04971326717
814	0.04966879059
815	0.04962141637
816	0.0495768985
817	0.04951469837
818	0.04946283503
819	0.04942475814
820	0.04940007709
821	0.04934614949
822	0.04929954462
823	0.04924929181
824	0.04923451863
825	0.04919596902
826	0.04911745525
827	0.04907594353
828	0.0490599641
829	0.04902661747
830	0.04899124387
831	0.04893325071
832	0.04875528567
833	0.04871727021
834	0.04864903798
835	0.04859716038
836	0.04856221826
837	0.0485295183
838	0.04849735356
839	0.04847143969
840	0.04844632721
841	0.04842226568
842	0.04838113111
843	0.04833932017
844	0.04824411956
845	0.04816919917
846	0.04813738
847	0.04808394945
848	0.0480492365
849	0.04801259108
850	0.04790827459
851	0.04788971971
852	0.04784266767
853	0.04777237019
854	0.04774695497
855	0.04771396681
856	0.04768545222
857	0.04764670279
858	0.04760488459
859	0.04757392269
860	0.04749554967
861	0.04746792526
862	0.04742818856
863	0.04738814284
864	0.04737829877
865	0.04731791719
866	0.04729139171
867	0.04725747899
868	0.04722054094
869	0.04718970189
870	0.04716782998
871	0.04714126707
872	0.04710347831
873	0.04703501031
874	0.04700224192
875	0.04697078514
876	0.04693663915
877	0.0469175817
878	0.04687795231
879	0.04683866746
880	0.04679086285
881	0.0467625168
882	0.0467310778
883	0.046647532
884	0.04659783983
885	0.04656249474
886	0.04652184521
887	0.04644426991
888	0.04640985184
889	0.04636149518
890	0.04630996095
891	0.0462729316
892	0.04624288285
893	0.04620373957
894	0.04616278218
895	0.04612220435
896	0.04609620292
897	0.04604852074
898	0.04601940219
899	0.04595700489
900	0.0458999081
901	0.04588151514
902	0.04585888046
903	0.04583687417
904	0.04581327961
905	0.045779256
906	0.04570131644
907	0.04564960382
908	0.04558297956
909	0.04556273101
910	0.04552413782
911	0.04549070456
912	0.04545645035
913	0.04543993654
914	0.04538647312
915	0.04535204953
916	0.04533713931
917	0.04532412895
918	0.04527715174
919	0.04525131792
920	0.04520709451
921	0.04516992372
922	0.04515462176
923	0.04512945457
924	0.04508504177
925	0.0450720112
926	0.04505209705
927	0.04501655839
928	0.04500039282
929	0.04495926231
930	0.04493093092
931	0.04489848278
932	0.04485809286
933	0.04483764116
934	0.04481733014
935	0.04479508457
936	0.04478382982
937	0.04474582945
938	0.04471107318
939	0.04468673814
940	0.04464571413
941	0.04461448647
942	0.04460170164
943	0.04456998458
944	0.04454914949
945	0.04451461142
946	0.04448034552
947	0.04443450672
948	0.0443981783
949	0.04436256659
950	0.04432384589
951	0.04429915707
952	0.04424420755
953	0.04419970814
954	0.04413921936
955	0.04409606655
956	0.04406586665
957	0.04401709896
958	0.04399219706
959	0.0439616704
960	0.04394348573
961	0.04389945374
962	0.04381537992
963	0.04377509415
964	0.04373859524
965	0.04368224783
966	0.04363952545
967	0.04361381833
968	0.04358872696
969	0.04354589
970	0.04348715505
971	0.04347085737
972	0.0434057675
973	0.04338652765
974	0.04332729343
975	0.04331817888
976	0.04330543998
977	0.04328222451
978	0.04321186002
979	0.04318404398
980	0.04314769736
981	0.04312045076
982	0.04308734731
983	0.04305167989
984	0.04302836038
985	0.04301130388
986	0.04299753093
987	0.04293344199
988	0.04290456688
989	0.04287015434
990	0.04283264127
991	0.04279068663
992	0.04278070009
993	0.04274351096
994	0.04272944264
995	0.04270374482
996	0.04263844775
997	0.0426155284
998	0.04253762266
999	0.04250889092
